Step TotEng KinEng PotEng Temp Press Enthalpy E_bond E_angle E_dihed E_impro E_pair E_vdwl E_coul E_long E_tail Volume 
       0   -13694.684    590.91954   -14285.604    229.53446   -9562.8876   -15785.287   0.17070316    17.281316    6.5241812            0    -14309.58   -10142.808    10566.284   -14733.055            0    14990.173 
      10   -13272.799    366.71668   -13639.516    142.44598   -5560.5672    -14488.43    2.0804738    25.310112    7.2324312            0   -13674.139   -10049.116    11107.691   -14732.713            0    14990.173 
      20   -13254.257    320.20237    -13574.46    124.37815   -4396.0886   -14215.314    2.1627319    25.845205    7.3741587            0   -13609.842   -9998.9262     11120.15   -14731.065            0    14990.173 
      30   -13225.089    296.04282   -13521.131    114.99371    -4006.791   -14101.038     1.411675    25.689287    9.5249251            0   -13557.757   -10014.631    11188.376   -14731.502            0    14990.173 
      40   -13181.251    302.94605   -13484.197    117.67517   -4610.4437   -14189.169   0.95955877    26.969792    8.4791606            0   -13520.605   -10038.781     11247.71   -14729.534            0    14990.173 
      50   -13116.145    358.91026   -13475.056    139.41369   -5795.9398   -14383.232    3.2000651    29.086129    9.3784646            0    -13516.72   -10097.396    11311.477   -14730.801            0    14990.173 
      60   -13019.758    438.17985   -13457.938    170.20485   -6622.4074   -14467.524    1.7985389    35.048994    7.5704631            0   -13502.356   -10140.618    11368.946   -14730.683            0    14990.173 
      70   -12889.153    505.86666   -13395.019    196.49685   -6725.4902   -14359.454    3.5384354    28.570457    7.7951256            0   -13434.923   -10130.326    11426.442   -14731.039            0    14990.173 
      80   -12730.217    572.10631   -13302.323    222.22672    -5515.753   -13936.051    1.7443809     28.84682    9.2956277            0    -13342.21   -10091.299    11480.817   -14731.728            0    14990.173 
      90   -12529.805     655.3094   -13185.114     254.5458   -4930.4623   -13607.684    3.5634303    37.645424    9.2041522            0   -13235.527   -10077.068    11572.034   -14730.494            0    14990.173 
     100   -12282.089    830.19383   -13112.283    322.47722   -5239.7137   -13427.576     4.073156    39.059716     12.39105            0   -13167.806   -10072.597    11633.577   -14728.787            0    14990.173 
     110   -11976.979    1032.5579   -13009.537    401.08272   -3669.7163   -12779.239    2.7275138    38.316333    10.991081            0   -13061.572   -10042.018    11707.547   -14727.101            0    14990.173 
     120   -11645.785    1185.4579   -12831.243    460.47458    -2220.726   -12131.272    5.0825212    46.977496    10.394001            0   -12893.697   -9956.3394    11789.386   -14726.744            0    14990.173 
     130   -11326.496    1305.1416   -12631.637    506.96407    26.289845   -11320.748    8.8727321    49.193034    9.7526454            0   -12699.456   -9842.1593     11864.77   -14722.066            0    14990.173 
     140   -11056.092    1398.9518   -12455.044    543.40332    1725.4341   -10678.884     5.565601    48.199525    9.3368223            0   -12518.146   -9780.8994    11984.701   -14721.947            0    14990.173 
     150   -10860.206    1494.5356   -12354.742    580.53153    94.089491   -10839.636    7.7778745     47.34857    10.283864            0   -12420.152   -9779.3905    12079.358   -14720.119            0    14990.173 
     160   -10765.946    1525.8355   -12291.781    592.68952    -1421.788   -11076.772    5.2904072    65.317061    11.591419            0    -12373.98    -9825.463    12175.454   -14723.972            0    14990.173 
     170   -10793.799    1498.8013     -12292.6    582.18846   -2841.7904    -11415.06    5.5844528    48.232831    11.898237            0   -12358.315    -9837.555    12202.154   -14722.915            0    14990.173 
     180   -10925.685    1349.9595   -12275.645    524.37294   -4675.9103   -11947.916    7.0556566    43.647243    9.9126909            0    -12336.26   -9801.3606    12192.031   -14726.931            0    14990.173 
     190   -11110.235         1153   -12263.235    447.86677   -5356.3695   -12281.224    5.5229245    54.887908     9.241744            0   -12332.887   -9790.3621    12179.069   -14721.594            0    14990.173 
     200   -11318.045    1007.8279   -12325.873    391.47672   -7532.9645   -12964.874    4.5326819    58.370457    8.0672499            0   -12396.843    -9832.796    12160.752   -14724.799            0    14990.173 
     210   -11529.682    914.15277   -12443.835     355.0899   -10114.895   -13740.963    6.6591604    49.400158    8.0262917            0   -12507.921   -9863.0247    12077.021   -14721.917            0    14990.173 
     220   -11731.735    806.62876   -12538.363     313.3237   -11925.006   -14338.735    5.4678819    41.837608    6.9334789            0   -12592.602   -9948.2191    12082.964   -14727.347            0    14990.173 
     230   -11918.352     745.5728   -12663.925    289.60736   -14648.503   -15120.754    3.8314054    40.243691    8.7379281            0   -12716.738   -10033.759    12044.058   -14727.037            0    14990.173 
     240   -12083.689    668.09914   -12751.788     259.5138   -15891.705   -15557.874    3.6557775    37.214508    8.2276973            0   -12800.886   -10094.248    12023.386   -14730.023            0    14990.173 
     250   -12228.219    611.01331   -12839.232     237.3396   -16539.865   -15844.103    3.7639765    32.664399    7.9659232            0   -12883.626   -10143.619    11991.919   -14731.926            0    14990.173 
     260   -12351.205    554.30601   -12905.511    215.31244   -16792.755   -16022.375    2.8760977     34.21843     8.079116            0   -12950.684   -10169.232    11949.099   -14730.551            0    14990.173 
     270     -12452.4    524.99879   -12977.399    203.92846   -16364.624   -16029.974    1.8968047    33.751336    6.5611662            0   -13019.608   -10186.156    11896.316   -14729.768            0    14990.173 
     280   -12538.027    502.32445   -13040.351    195.12093    -15885.96   -16010.957    1.3541826    30.912887    6.8656005            0   -13079.484   -10208.427    11861.073   -14732.131            0    14990.173 
     290   -12606.816    495.80074   -13102.617    192.58689   -15578.145   -16012.452    2.6108876    29.265692    7.3246104            0   -13141.818   -10223.626    11811.995   -14730.187            0    14990.173 
     300   -12661.787    502.11745   -13163.904    195.04052   -14432.704   -15817.011    3.3678574     29.31352    7.6503001            0   -13204.236   -10234.462    11761.082   -14730.856            0    14990.173 
     310   -12700.908    484.38207    -13185.29    188.15146   -13063.801   -15556.868    2.0270829    31.685598    7.9797357            0   -13226.983   -10233.484     11738.83   -14732.329            0    14990.173 
     320   -12725.969    483.94565   -13209.915    187.98194   -11779.514   -15301.163    3.0345424    27.364226    7.6712436            0   -13247.985   -10233.613    11716.877   -14731.248            0    14990.173 
     330   -12736.423    491.77937   -13228.203    191.02484   -9917.4841   -14904.547     1.940042    30.713478    6.3593901            0   -13267.216   -10252.539      11715.2   -14729.877            0    14990.173 
     340   -12732.826    519.32144   -13252.148    201.72317   -8810.8107   -14659.013    2.5243032    30.301179    6.9647674            0   -13291.938   -10266.473    11706.544   -14732.009            0    14990.173 
     350   -12714.812    534.00273   -13248.814    207.42592   -6976.0051    -14239.88    2.1824799    33.834025     7.456069            0   -13292.287   -10264.215    11701.308    -14729.38            0    14990.173 
     360   -12682.813    573.40545   -13256.218    222.73135   -5022.6401   -13780.844     2.527947    33.078222    6.4105491            0   -13298.235   -10249.852    11682.545   -14730.928            0    14990.173 
     370   -12636.488    624.29655   -13260.785    242.49929   -3707.1007   -13446.921    2.3389497    28.333124    7.6608269            0   -13299.117   -10247.177     11677.55   -14729.491            0    14990.173 
     380   -12577.094    642.90555       -13220     249.7277   -1897.9482   -12992.016    2.4418819    33.583358    6.9943392            0   -13263.019    -10236.29    11702.336   -14729.065            0    14990.173 
     390   -12506.743    674.59803   -13181.341     262.0382   -791.90557   -12679.866    2.2730821    37.732663    7.8081576            0   -13229.155   -10229.165    11731.036   -14731.026            0    14990.173 
     400   -12425.805    739.46646   -13165.271    287.23544   -157.93582   -12460.332    3.4554755    33.725225    8.8758548            0   -13211.328   -10216.311    11735.864   -14730.881            0    14990.173 
     410   -12335.048    789.16316   -13124.211    306.53943      921.474   -12133.598    2.5622252    34.086272    9.9958474            0   -13170.855   -10201.074    11757.284   -14727.065            0    14990.173 
     420   -12240.491    856.62154   -13097.113     332.7427    946.41836   -12033.589    2.8448117    37.576534    10.842241            0   -13148.377   -10185.722     11766.89   -14729.544            0    14990.173 
     430   -12145.591    907.94611   -13053.537    352.67901    1494.5959   -11818.848    3.4961224    41.512036    10.921645            0   -13109.467   -10153.537    11772.472   -14728.403            0    14990.173 
     440    -12060.95    922.70086    -12983.65    358.41029     1143.806   -11810.895    1.2465777     39.48537    11.297904            0    -13035.68   -10141.115    11832.079   -14726.643            0    14990.173 
     450   -11989.535     999.6504   -12989.185    388.30026    266.68286   -11931.234    4.1893566    34.585577    11.889507            0    -13039.85   -10119.243    11807.185   -14727.791            0    14990.173 
     460   -11937.741    990.46635   -12928.207    384.73285   -191.04303   -11979.506    3.9203572    39.588495    12.466491            0   -12984.183    -10079.05    11819.344   -14724.477            0    14990.173 
     470   -11910.383    1001.6435   -12912.027    389.07446   -1452.6773   -12227.962    5.3104683    37.938252    11.416587            0   -12966.692   -10068.589    11830.204   -14728.307            0    14990.173 
     480   -11907.647    994.29233   -12901.939    386.21899   -3319.3446    -12633.31    3.8150007    38.205901    12.206129            0   -12956.166   -10098.511    11863.187   -14720.842            0    14990.173 
     490   -11929.294    965.45041   -12894.744    375.01575   -4802.7821    -12979.26    2.7032412    36.784002    11.335437            0   -12945.567    -10111.97    11893.954    -14727.55            0    14990.173 
     500   -11969.804     921.5407   -12891.345    357.95964   -6280.6528   -13342.858    4.6874474    35.767264    11.155934            0   -12942.956   -10112.118    11893.773   -14724.611            0    14990.173 
     510   -12018.743    843.69872   -12862.442    327.72301   -7435.7778   -13644.325    3.5864293    39.880499    10.825605            0   -12916.734   -10108.196    11920.115   -14728.653            0    14990.173 
     520   -12074.033    808.09396   -12882.127    313.89284   -8685.8321   -13972.897    5.9387257    33.264238    10.663224            0   -12931.993   -10120.412    11917.521   -14729.102            0    14990.173 
     530   -12129.697    766.03002   -12895.727    297.55368   -9545.0657   -14216.404    2.1333982    34.666902    11.071025            0   -12943.598   -10130.133    11914.044    -14727.51            0    14990.173 
     540   -12185.678    769.05234   -12954.731    298.72766   -10549.448    -14491.96    1.7572618    35.471937    9.3968953            0   -13001.357   -10147.485    11875.636   -14729.507            0    14990.173 
     550   -12239.705    728.07869   -12967.784    282.81202   -10563.928   -14549.152    2.3372604    34.515321    10.002018            0   -13014.638   -10128.602    11839.347   -14725.383            0    14990.173 
     560   -12288.988    717.18982   -13006.178    278.58239   -10437.428    -14570.78    4.1022013    35.532449    8.3028132            0   -13054.116   -10128.057    11800.249   -14726.308            0    14990.173 
     570   -12332.291    672.45551   -13004.747    261.20597   -10278.806   -14579.406    4.0976006    31.533466    9.9221584            0     -13050.3   -10123.784    11802.744    -14729.26            0    14990.173 
     580   -12367.928    667.37358   -13035.302    259.23196   -10376.078   -14636.308    2.1494164    34.345904    10.015819            0   -13081.813   -10145.584    11792.492   -14728.721            0    14990.173 
     590    -12396.87    660.20593   -13057.076    256.44779   -9827.2131   -14545.259    3.4805944    30.522575    9.8377072            0   -13100.917   -10162.446    11790.705   -14729.176            0    14990.173 
     600     -12418.1    655.76122   -13073.861     254.7213   -9238.1075   -14437.701       1.9685     33.15012    9.3445835            0   -13118.325    -10168.23     11777.15   -14727.244            0    14990.173 
     610   -12431.788    675.07228   -13106.861    262.22242   -9245.6863   -14453.046    3.4683889     33.25658    9.1738576            0   -13152.759    -10204.99    11781.666   -14729.436            0    14990.173 
     620   -12439.097    680.88078   -13119.978    264.47865   -8374.2437   -14269.843    2.9856655    32.022247    9.6936803            0    -13164.68   -10208.059     11772.03    -14728.65            0    14990.173 
     630   -12439.005    633.94511   -13072.951    246.24714   -7036.2027   -13977.234    3.9144935    30.899151    10.073584            0   -13117.838   -10188.133    11798.928   -14728.632            0    14990.173 
     640   -12430.797    664.74428   -13095.541    258.21065   -6203.5216   -13786.988   0.99673113    35.060102    8.3013969            0   -13139.899   -10219.467    11806.331   -14726.763            0    14990.173 
     650   -12415.578    686.21086   -13101.789    266.54904    -5684.622   -13658.329    1.3943705    33.577328     8.020896            0   -13144.781   -10225.204    11810.056   -14729.634            0    14990.173 
     660    -12394.11    700.08571   -13094.196    271.93854   -4291.7947   -13332.366    3.1026008    35.250879     8.349127            0   -13140.898   -10222.291    11810.041   -14728.649            0    14990.173 
     670   -12366.934    722.52578    -13089.46    280.65507   -3704.6673   -13176.835    2.2998942    32.061001    10.572275            0   -13134.393   -10219.808    11816.737   -14731.322            0    14990.173 
     680   -12334.922    747.09947   -13082.021    290.20038   -3243.5849   -13044.022     7.319735    31.570909    10.031243            0   -13130.943    -10211.99    11810.804   -14729.758            0    14990.173 
     690   -12299.891    781.65372   -13081.544    303.62249   -2631.6252   -12875.207    2.8565502     35.74758    10.580614            0   -13130.729   -10203.143    11799.338   -14726.924            0    14990.173 
     700   -12264.463    810.40906   -13074.872     314.7921   -2780.5257   -12872.331    3.7002682    32.688525    8.2496351            0    -13119.51   -10211.299    11818.768   -14726.979            0    14990.173 
     710   -12231.116    829.47311   -13060.589    322.19727    -2218.783   -12716.178    2.1210375    33.097234    7.4626367            0    -13103.27   -10185.554    11806.709   -14724.425            0    14990.173 
     720   -12201.885    808.77925   -13010.664    314.15903   -1713.2131   -12576.421    3.5129127    34.553615     7.786904            0   -13056.517   -10170.484    11838.268   -14724.301            0    14990.173 
     730   -12177.513    819.15817   -12996.671    318.19057    -2132.463   -12643.704    4.4095084    32.235329    8.0849663            0   -13041.401   -10156.001    11837.159   -14722.559            0    14990.173 
     740   -12157.712    794.86467   -12952.576     308.7541   -2482.7056   -12700.472    3.9376366    30.224761    10.125477            0   -12996.864    -10132.71    11860.057   -14724.211            0    14990.173 
     750   -12140.744     848.3804   -12989.125    329.54154   -3302.1334   -12862.645    3.8781181    29.888769    9.1120538            0   -13032.004   -10148.328     11841.46   -14725.136            0    14990.173 
     760   -12129.223    856.64231   -12985.865    332.75076   -5198.3117   -13265.658    5.3621659    33.912865    8.7378651            0   -13033.878   -10185.476    11871.406   -14719.808            0    14990.173 
     770   -12126.968    874.58825   -13001.557    339.72161   -5512.7525   -13332.146    3.6196904    32.704054    7.6190752            0   -13045.499   -10191.167     11874.88   -14729.213            0    14990.173 
     780   -12135.231    866.60842    -13001.84    336.62196    -6525.561   -13561.825    3.3724867    31.628897    9.0915248            0   -13045.933   -10191.755    11872.667   -14726.844            0    14990.173 
     790   -12152.599    829.86781   -12982.467    322.35058   -6755.4684   -13629.455    3.0573767     33.36918     7.641093            0   -13026.535   -10194.219    11894.091   -14726.407            0    14990.173 
     800   -12175.677    833.04671   -13008.724    323.58538   -7947.8836   -13913.214    4.1556265    38.354744    7.4490653            0   -13058.683   -10210.711    11877.609   -14725.581            0    14990.173 
     810   -12202.575    793.57344   -12996.149    308.25254    -8489.518   -14058.522    5.3101385    29.106548    7.9996825            0   -13038.565   -10222.747    11911.467   -14727.284            0    14990.173 
     820   -12230.701    742.01061   -12972.712    288.22368    -8359.949   -14058.322    3.3977034    32.045613    9.0618039            0   -13017.217   -10205.303     11913.54   -14725.454            0    14990.173 
     830   -12257.653    747.17574   -13004.829       290.23   -8426.5178   -14099.827    2.1334774    32.257749    9.0386433            0   -13048.259   -10189.781     11870.43   -14728.908            0    14990.173 
     840   -12281.926    734.40294   -13016.329    285.26858   -8366.6225   -14111.006    3.9581504    34.403226    8.4015971            0   -13063.092   -10183.724    11849.231     -14728.6            0    14990.173 
     850   -12303.469    714.63253   -13018.101    277.58904   -8226.7447   -14101.969    2.7918174    35.440631    8.3160906            0    -13064.65   -10179.037    11839.885   -14725.497            0    14990.173 
     860   -12321.615    754.89733   -13076.512    293.22935   -8666.3796   -14216.227    1.8796413    33.512252    8.1080236            0   -13120.012   -10221.636    11831.394   -14729.771            0    14990.173 
     870   -12337.984    739.72652   -13077.711    287.33645   -8861.1671    -14275.18    2.6490968    32.820014    8.8169126            0   -13121.997   -10233.572     11835.58   -14724.005            0    14990.173 
     880    -12352.99    749.47367   -13102.464     291.1226    -7901.654    -14080.42    3.1017135    25.324353     7.245055            0   -13138.135   -10229.533     11817.28   -14725.882            0    14990.173 
     890   -12365.321      704.986   -13070.307    273.84198    -6864.744   -13866.066     2.235505     31.48105    7.4300638            0   -13111.453   -10211.688    11828.154   -14727.919            0    14990.173 
     900   -12373.626    696.28731   -13069.913     270.4631   -6466.5841   -13787.326    3.7522654    28.959961    8.1656516            0   -13110.791   -10214.083    11828.299   -14725.007            0    14990.173 
