Step TotEng KinEng PotEng Temp Press Enthalpy E_bond E_angle E_dihed E_impro E_pair E_vdwl E_coul E_long E_tail Volume 
       0     -2598.56    152.37632   -2750.9363    239.24695   -10579.176   -3264.6406   0.26356265    19.461735    6.9292277            0   -2777.5908   -1887.5911      2483.17   -3373.1698            0    4317.1693 
      10   -2519.3175    103.48943   -2622.8069    162.48935   -7683.0938   -3003.0565    0.9649183    24.974634    7.7732401            0   -2656.5197   -1870.8417    2586.7744   -3372.4524            0    4317.1693 
      20   -2514.6935    85.614533   -2600.3081    134.42388   -6870.4975   -2947.2703    1.2546546    24.810197    8.8416075            0   -2635.2145   -1866.1737    2602.5854   -3371.6263            0    4317.1693 
      30    -2507.112    78.117425   -2585.2295    122.65262   -6652.0413   -2925.9344    2.1213783    30.375454    8.5079655            0   -2626.2343   -1872.5911    2618.6924   -3372.3355            0    4317.1693 
      40   -2495.7245    92.378469   -2588.1029    145.04397   -6719.3768   -2918.7864   0.43966586    26.618322    9.2358973            0   -2624.3968   -1872.6773    2621.9698   -3373.6893            0    4317.1693 
      50   -2477.9802    100.97405   -2578.9542    158.53995   -6828.5422   -2907.9153    2.4852314     28.71132    8.3211701            0    -2618.472   -1878.0657     2631.941   -3372.3473            0    4317.1693 
      60   -2453.9202    114.42491   -2568.3451    179.65921   -7867.3005   -2949.2571    3.5390723    28.706722    10.475227            0   -2611.0661   -1884.7339    2646.8928    -3373.225            0    4317.1693 
      70   -2423.5685    132.39973   -2555.9682    207.88159   -8574.0372   -2963.4026    3.2035957    32.976758    10.262826            0   -2602.4114   -1880.1917    2650.4578   -3372.6775            0    4317.1693 
      80   -2385.2138    153.01525    -2538.229    240.25013   -7212.5731   -2839.3281    1.8478061    29.118859    9.7892497            0   -2578.9849   -1863.9463    2656.7314     -3371.77            0    4317.1693 
      90   -2338.1209    167.60759   -2505.7285    263.16165   -7837.0406   -2831.5526    3.8323614    35.025463    9.0238226            0   -2553.6101   -1853.6282    2672.7857   -3372.7676            0    4317.1693 
     100     -2281.74    210.10332   -2491.8433    329.88444   -7144.4925   -2731.5678    4.6784707    32.813513    8.0509591            0   -2537.3862   -1849.0501    2682.4766   -3370.8127            0    4317.1693 
     110   -2217.0996    242.27418   -2459.3738     380.3961   -5890.9671   -2588.0037    3.7020028    41.742588    10.841971            0   -2515.6604   -1838.2771    2694.5578   -3371.9411            0    4317.1693 
     120   -2145.6843    289.08787   -2434.7722    453.89855   -5705.8315   -2504.9319    3.0474231    36.252308    10.829207            0   -2484.9011   -1819.2303    2705.0623   -3370.7331            0    4317.1693 
     130   -2079.3063    325.40542   -2404.7118    510.92095   -5439.1223   -2421.7616    3.1119811    43.382992    11.129418            0   -2462.3362    -1818.984    2726.1474   -3369.4996            0    4317.1693 
     140   -2021.8196    361.26765   -2383.0873    567.22844   -4765.2977   -2321.8498    3.4316643    46.555118    12.831137            0   -2445.9052   -1815.3698    2740.7593   -3371.2947            0    4317.1693 
     150    -1987.108    357.82243   -2344.9304    561.81908   -5794.5667   -2351.9425    3.5633559    45.758811     10.24046            0   -2404.4931   -1810.6691    2775.8435   -3369.6675            0    4317.1693 
     160   -1976.5036    342.22932    -2318.733    537.33624   -4861.8516   -2282.6131    5.2379496    42.020525    12.468306            0   -2378.4597   -1798.5702    2789.0646   -3368.9542            0    4317.1693 
     170   -1986.8153    327.66869    -2314.484    514.47451   -5172.8321   -2312.5045    4.0638864    47.817903    15.210191            0    -2381.576   -1801.5734     2789.187   -3369.1896            0    4317.1693 
     180   -2013.6648    299.93436   -2313.5991    470.92869   -5518.9803    -2361.148     3.432882    41.260116      15.6463            0   -2373.9384   -1799.0294    2796.1534   -3371.0624            0    4317.1693 
     190   -2050.8769    270.10717   -2320.9841    424.09684   -6027.8093   -2430.3967     3.731913    47.818865    14.802425            0   -2387.3373   -1802.1606    2784.6351   -3369.8118            0    4317.1693 
     200   -2092.7032    236.09345   -2328.7967     370.6917   -6852.7967   -2524.1655    3.8747837    36.898592     12.65982            0   -2382.2299   -1795.2804    2782.2337   -3369.1832            0    4317.1693 
     210   -2135.8688    219.60866   -2355.4775    344.80883   -7277.8314   -2594.0919    4.2807231    36.472313    11.744273            0   -2407.9748   -1800.9412    2765.2243   -3372.2578            0    4317.1693 
     220    -2178.301    199.83395   -2378.1349    313.76045   -9830.8249   -2797.2643    5.3090846    31.900008    11.324742            0   -2426.6688   -1812.7297    2757.8901   -3371.8291            0    4317.1693 
     230   -2215.8572    176.25139   -2392.1086    276.73333   -8779.1826   -2768.6076    1.9925612     39.77167     10.87619            0    -2444.749   -1818.9643    2745.4846   -3371.2693            0    4317.1693 
     240   -2249.1561    155.95398   -2405.1101    244.86426   -9950.9982   -2875.6857    4.5686946    38.407384    11.479313            0   -2459.5655   -1825.0728    2735.6247   -3370.1173            0    4317.1693 
     250    -2278.642    152.77502    -2431.417    239.87295   -10779.801   -2957.3542    1.8395021    40.259382    10.514824            0   -2484.0307   -1841.4723    2728.9617   -3371.5201            0    4317.1693 
     260   -2304.3402    143.94109   -2448.2813    226.00274   -11489.519   -3027.7374    3.1014343    34.290607    9.8034463            0   -2495.4768   -1839.7542    2715.5208   -3371.2434            0    4317.1693 
     270   -2326.5017    145.84089   -2472.3426    228.98564   -11405.084   -3044.5828     2.123222    30.685615    11.260675            0   -2516.4121   -1839.4945    2693.6374   -3370.5551            0    4317.1693 
     280   -2345.2437    134.17011   -2479.4138    210.66127   -10807.217   -3025.6821    2.1893123    30.917514      9.99561            0   -2522.5162   -1836.7667    2684.7386   -3370.4881            0    4317.1693 
     290   -2360.2321    135.90401   -2496.1361    213.38367   -10762.361   -3037.8464    1.4286963    27.733152    10.241899            0   -2535.5398   -1838.6199    2674.2438   -3371.1637            0    4317.1693 
     300   -2372.1783     137.0742   -2509.2525      215.221   -10430.772   -3028.9152    1.4610679    27.053553     10.75552            0   -2548.5226   -1849.8504    2672.3774   -3371.0496            0    4317.1693 
     310   -2380.9457    133.54672   -2514.4924    209.68248   -10073.123   -3015.1645    1.3634691    32.084688    10.588888            0   -2558.5294    -1859.612     2673.741   -3372.6585            0    4317.1693 
     320   -2385.9659     119.6141     -2505.58    187.80679   -9150.9064   -2962.1205    1.5685306    31.347745     11.58146            0   -2550.0777   -1859.0851    2679.9427   -3370.9353            0    4317.1693 
     330   -2387.5515    123.33972   -2510.8913    193.65641    -8212.617   -2904.6301     1.670439    29.139211    10.577957            0   -2552.2789   -1859.7732    2680.1238   -3372.6295            0    4317.1693 
     340   -2385.5831    129.43174   -2515.0148    203.22153   -8540.3093   -2923.2937     2.834884    28.222324    10.807083            0   -2556.8791    -1867.207    2682.3505   -3372.0226            0    4317.1693 
     350   -2380.3159    139.51265   -2519.8286    219.04962   -7743.2026   -2867.8395    1.1589764    26.234594    10.039378            0   -2557.2615   -1873.0336     2687.171   -3371.3988            0    4317.1693 
     360   -2371.5168    151.34818    -2522.865    237.63266    -7421.164   -2838.7643    1.5480213    28.018364     8.999166            0   -2561.4305   -1875.1417    2685.4352    -3371.724            0    4317.1693 
     370     -2359.44    153.49534   -2512.9354    241.00393   -7102.4519    -2806.621    1.8624269    27.556432    8.6485233            0   -2551.0028   -1876.9612    2697.8864    -3371.928            0    4317.1693 
     380   -2344.0255    168.02103   -2512.0465    263.81079    -6559.339   -2757.0112    1.7418485     29.63983    7.1065757            0   -2550.5347   -1880.4571    2702.7048   -3372.7825            0    4317.1693 
     390   -2326.5913    183.45646   -2510.0477    288.04605   -7760.1923   -2815.1845    2.1139967     30.11912    8.7102582            0   -2550.9911   -1880.9091    2703.2412   -3373.3232            0    4317.1693 
     400   -2306.7155    194.23002   -2500.9455    304.96169    -6455.536   -2713.1656     2.684438    37.044788    8.3150702            0   -2548.9898   -1871.9517    2696.6477   -3373.6858            0    4317.1693 
     410   -2285.3261    224.27473   -2509.6008    352.13505   -7534.9129   -2759.7354    2.2653552    36.556288     7.918149            0   -2556.3406   -1860.6979    2677.3869   -3373.0296            0    4317.1693 
     420   -2265.0546    227.85494   -2492.9095    357.75637   -7087.7357    -2711.309    4.1624822     29.03242    8.5009569            0   -2534.6054   -1862.6568    2700.8634    -3372.812            0    4317.1693 
     430    -2247.888    235.89645   -2483.7845    370.38239   -7636.9177   -2728.7197     2.324755    31.064821    8.6634302            0   -2525.8375   -1873.9579     2720.462   -3372.3416            0    4317.1693 
     440    -2234.941    222.78807    -2457.729    349.80084   -7004.3856   -2675.9475    2.2649602    34.503708    9.2405442            0   -2503.7383   -1876.1139    2745.8023   -3373.4266            0    4317.1693 
     450   -2226.1086    235.99451   -2462.1031    370.53636   -7371.0034    -2690.198    2.4914718    33.138962     9.066861            0   -2506.8004   -1884.4832    2747.7245   -3370.0418            0    4317.1693 
     460   -2221.5986    239.40697   -2461.0056    375.89428   -6277.1446   -2616.8169    2.3035542    30.456764    9.4461935            0   -2503.2121   -1877.2167     2744.133   -3370.1284            0    4317.1693 
     470    -2221.623    241.83972   -2463.4628    379.71395    -6016.616   -2600.4381    1.3546399    32.623584    10.962435            0   -2508.4034   -1876.6013    2738.7707   -3370.5728            0    4317.1693 
     480    -2226.134     232.8593   -2458.9933    365.61375   -7166.3569   -2677.3385    2.9252395    35.150159    10.300107            0   -2507.3688   -1873.8717    2734.2684   -3367.7656            0    4317.1693 
     490   -2234.5517    232.92752   -2467.4792    365.72085   -6905.4565   -2669.3295    3.2105351    33.633959    10.086871            0   -2514.4105   -1866.2435    2722.0113   -3370.1784            0    4317.1693 
     500   -2246.4515    221.28797   -2467.7394    347.44552   -6003.2597   -2624.4256    2.3200155    32.967146    10.176235            0   -2513.2028    -1859.627    2718.2655   -3371.8413            0    4317.1693 
     510   -2259.7286    199.73972   -2459.4683     313.6125   -6171.0431   -2648.2666    3.1445076    28.415045    11.179399            0   -2502.2073   -1849.5166    2718.6528   -3371.3435            0    4317.1693 
     520   -2273.3365    197.96094   -2471.2974    310.81963    -6725.235   -2696.7673     2.357992    34.063993    11.642126            0   -2519.3615   -1849.5626    2698.7219   -3368.5208            0    4317.1693 
     530   -2288.5182    210.27386    -2498.792    330.15221   -6925.8783   -2724.5818    1.6457267    26.612447     10.50729            0   -2537.5575   -1864.9975      2697.65     -3370.21            0    4317.1693 
     540   -2304.9004    203.25891   -2508.1593      319.138    -7819.315   -2797.2161    2.7076085    27.205555    10.840942            0   -2548.9134   -1870.1321    2692.3366   -3371.1179            0    4317.1693 
     550   -2321.7027    190.71205   -2512.4148     299.4381   -7520.5857     -2795.21    2.2367523    28.986129    10.999512            0   -2554.6372   -1871.4812    2689.3497   -3372.5056            0    4317.1693 
     560   -2337.3504    176.40603   -2513.7564    276.97614     -8552.81    -2875.848    2.6704754    29.731318    10.156194            0   -2556.3144   -1867.7721    2683.0535   -3371.5958            0    4317.1693 
     570   -2351.2374    166.91264     -2518.15    262.07051   -7191.9615   -2804.0539    2.1624468     29.50516    9.4054198            0    -2559.223   -1870.8194    2682.8919   -3371.2955            0    4317.1693 
     580   -2363.6325    176.07837   -2539.7109    276.46167    -8552.723   -2902.1247    1.4650852    28.676083    10.132528            0   -2579.9846      -1879.6     2672.725   -3373.1096            0    4317.1693 
     590   -2373.9509     154.7518   -2528.7027    242.97671   -7870.5308   -2869.4912     1.772909    30.710326    9.6049514            0   -2570.7909   -1876.5108    2678.4028   -3372.6828            0    4317.1693 
     600   -2382.0292     158.3735   -2540.4027    248.66316   -7296.9962   -2841.4589    2.2450553    28.987681    11.048474            0   -2582.6839   -1883.6861     2671.986   -3370.9838            0    4317.1693 
     610   -2388.4173    168.01812   -2556.4355    263.80623   -8255.0135   -2908.1653    2.5848252    27.093956    10.501069            0   -2596.6153     -1892.45    2668.4604   -3372.6258            0    4317.1693 
     620   -2393.1759    163.10769   -2556.2836    256.09633   -7122.6043   -2841.6256    1.7638763    29.738724    11.288997            0   -2599.0751   -1900.4183    2673.2565   -3371.9134            0    4317.1693 
     630   -2396.4781    167.24505   -2563.7231    262.59243   -6685.4762   -2817.4056    2.0945736     25.98854    11.262698            0   -2603.0689   -1892.3323    2661.6767   -3372.4133            0    4317.1693 
     640   -2397.9886     165.8997   -2563.8883    260.48008   -5714.1852   -2757.7622    1.5528715    29.566717    10.571032            0   -2605.5789   -1893.3825    2660.7566   -3372.9531            0    4317.1693 
     650    -2397.607    157.91762   -2555.5246    247.94738    -5374.425   -2735.9887    1.3682356    29.120369    11.157809            0    -2597.171   -1885.2504    2660.9019   -3372.8226            0    4317.1693 
     660   -2395.5831    161.33115   -2556.9143    253.30698   -5059.0265   -2714.1069   0.86762431    25.449319    10.811403            0   -2594.0426   -1886.7959     2664.344   -3371.5908            0    4317.1693 
     670   -2391.1672    167.59292   -2558.7602    263.13863   -5553.0121   -2740.7931    1.5661334    30.071242    10.363501            0    -2600.761     -1899.23    2670.6056   -3372.1367            0    4317.1693 
     680   -2385.3364    174.93836   -2560.2748    274.67174   -6241.4709   -2778.3087    2.7479413    27.490063    9.4563773            0   -2599.9691   -1903.1255    2672.9061   -3369.7497            0    4317.1693 
     690   -2378.3129    167.72074   -2546.0337    263.33931    -4521.404   -2662.9873   0.76443374    29.426001     8.428738            0   -2584.6528   -1894.2399    2679.2596   -3369.6725            0    4317.1693 
     700   -2370.0952    178.73792   -2548.8332    280.63745    -5517.123   -2717.4615    1.5481087    31.168542    8.4749892            0   -2590.0248     -1896.37    2677.5999   -3371.2547            0    4317.1693 
     710   -2360.8529    190.39532   -2551.2482     298.9408   -5090.3386   -2681.3481    2.1109802    27.990766    8.4372434            0   -2589.7872   -1901.1227    2681.0948   -3369.7593            0    4317.1693 
     720   -2351.1683    195.36896   -2546.5373    306.74994   -5159.1425   -2675.9956    2.3321372    32.433751    8.0053346            0   -2589.3085   -1895.8095    2677.8253   -3371.3243            0    4317.1693 
     730      -2341.2     185.3473   -2526.5473    291.01488   -5054.2671   -2659.4242     3.311257    33.580956    7.5919787            0   -2571.0315   -1879.5944    2677.3098   -3368.7469            0    4317.1693 
     740   -2332.0413    202.81089   -2534.8522    318.43456   -3576.7733   -2557.2403    2.0113608    29.791971    7.5941556            0   -2574.2497   -1877.3538    2675.4779   -3372.3738            0    4317.1693 
     750   -2323.2802    205.66483    -2528.945    322.91555   -5759.5778   -2685.9117    2.2030307    30.551261    8.2040822            0   -2569.9034   -1877.9651    2677.2824   -3369.2207            0    4317.1693 
     760   -2315.5472    209.63804   -2525.1853    329.15391   -6081.3701   -2698.4393    1.7997935    29.618086    8.6798604            0    -2565.283   -1890.8925    2697.1729   -3371.5634            0    4317.1693 
     770    -2309.666    209.28763   -2518.9536    328.60372   -5822.6703   -2676.2699    2.3526748     30.65888    8.1991133            0   -2560.1642   -1892.8381    2704.8654   -3372.1915            0    4317.1693 
     780   -2306.1108    210.04345   -2516.1543    329.79044   -7141.0752   -2755.7235    2.3584884    33.673611    9.1127391            0   -2561.2991    -1900.789    2711.6004   -3372.1104            0    4317.1693 
     790   -2303.9569    208.92628   -2512.8831    328.03637   -7077.0731   -2749.5399    1.7674894    33.876438    7.5753728            0   -2556.1024   -1895.1505    2709.2312   -3370.1832            0    4317.1693 
     800   -2303.5171    196.46687    -2499.984    308.47378   -6507.4103   -2713.2333    2.3638031    31.106703    9.4582869            0   -2542.9127   -1897.4089     2722.088   -3367.5918            0    4317.1693 
     810   -2304.5457    211.79522   -2516.3409    332.54091   -8517.6357   -2840.8287    2.4250238    35.026521    9.5839691            0   -2563.3764   -1904.6982    2711.6928   -3370.3711            0    4317.1693 
     820   -2306.9156    206.38648   -2513.3021    324.04862   -6498.4675   -2716.0688   0.86002373    35.761445     9.848264            0   -2559.7718   -1901.8549    2711.0432   -3368.9601            0    4317.1693 
     830   -2310.8588    206.69482   -2517.5536    324.53273   -7414.5368    -2777.689    2.5850917    28.561536    9.2050549            0   -2557.9053   -1895.9855    2707.1753    -3369.095            0    4317.1693 
     840   -2315.4985    193.76174   -2509.2602    304.22644   -4732.6919   -2613.4758    5.7846445    32.562429    8.9430375            0   -2556.5503   -1885.9167    2696.5139   -3367.1475            0    4317.1693 
     850   -2320.2543    187.69545   -2507.9497    294.70173   -4891.6493   -2628.2398    1.6555379    37.036649    8.5494374            0   -2555.1914   -1880.0736    2692.8944   -3368.0122            0    4317.1693 
     860    -2325.024    180.87144   -2505.8955    283.98731    -4425.565   -2603.6642    2.4238783    31.093539    9.5577181            0   -2548.9706   -1880.3976    2701.2934   -3369.8664            0    4317.1693 
     870   -2329.7541    189.46771   -2519.2218    297.48435   -3791.9321   -2568.4998    1.1925708    29.359846    9.5110469            0   -2559.2853   -1885.0477    2695.2479   -3369.4855            0    4317.1693 
     880   -2333.9901    194.66367   -2528.6538    305.64256   -6113.2399   -2718.8888     2.172095    32.601055    10.952133            0   -2574.3791     -1904.96    2702.4853   -3371.9044            0    4317.1693 
     890   -2338.4631    187.72598    -2526.189    294.74966   -5083.1598   -2658.5064    4.1726913    28.546212    11.698222            0   -2570.6062   -1905.2272     2706.644    -3372.023            0    4317.1693 
     900   -2342.9894    185.58626   -2528.5756    291.39006   -5993.6711   -2720.3598    2.3670333    33.582721    9.9344694            0   -2574.4599   -1898.4114    2695.0628   -3371.1112            0    4317.1693 
